Wavelength	I1	I1 dark	R1	R1dark	XCorrect	I1c	R1c	I1c/R1c	Abs	Percent T
nm	uA	uA	uA	uA		uA	uA	uA/uA	OD	T*100
	Abs Detector Raw	Dark Offset for Abs Detector	Ref Detector Raw	Dark Offset for Ref Detector	Linear interp	Dark subtracted Abs Detector	Corrected Ref Detector	Corrected Intensity 	-Log(T)	% Transmittance
700	0.218547626385028	1.50989989631049E-4	0.316851439163612	2.89114950932156E-6	1.04823756217957	0.218396636395397	0.332132549550438	0.657558666535424	-0.00102049488024722	100.235253918669
699	0.215099108027225		0.312443745699779		1.04531717300415	0.214948118037594	0.326599790809488	0.658139178548884	-6.47171043992103E-4	100.149127724818
698	0.214188818647928		0.311295201392845		1.04284107685089	0.214037828658297	0.324628408029561	0.659331787866224	-9.00598879303705E-4	100.207585716863
697	0.215847046561834		0.313953081020896		1.04093396663666	0.215696056572203	0.326801416469154	0.660021792141044	-8.53883264166412E-4	100.196807299364
696	0.220996605562254		0.321424577573073		1.03949666023254	0.220845615572623	0.334116769563606	0.660983331848538	-7.67543324033287E-4	100.1768896471
695	0.229660505140061		0.333845540047855		1.03854668140411	0.22950951515043	0.346711175124536	0.661961689201371	-8.59788396720108E-4	100.198169691648
694	0.241356793392886		0.350683329897567		1.03811478614807	0.241205803403255	0.364046548677251	0.662568576133097	-7.44032163262058E-4	100.171466572886
693	0.253859666572907		0.368454634147845		1.0381897687912	0.253708676583276	0.382522829874156	0.663251070966776	-9.24978266414381E-4	100.213211089039
692	0.266732215197008		0.386922233561357		1.03860867023468	0.266581225207377	0.401857783710446	0.663372058507791	-9.42076958649674E-4	100.21715668047
691	0.277699016224354		0.40276173545119		1.03925216197968	0.277548026234723	0.418567999696958	0.663089453650702	-7.54842440150155E-4	100.173960030234
690	0.289078996647632		0.418882401890682		1.03991138935089	0.288928006658001	0.435597573985474	0.6632911290448	-8.51685389779828E-4	100.196300225366
689	0.295979912147401		0.428853208735606		1.04055440425873	0.29582892215777	0.446242086731967	0.662933710095027	-7.96120098784064E-4	100.183481548946
688	0.300587007465906		0.435580537199936		1.04109787940979	0.300436017476275	0.453478963621407	0.662513681069223	-8.25249070385201E-4	100.190201274337
687	0.304755003665072		0.441571897649628		1.04147493839264	0.304604013675441	0.45988305384081	0.662351028444027	-0.00103568840260728	100.238760648031
686	0.307280031120802		0.445488917287297		1.04168057441711	0.307129041131171	0.464054139602008	0.6618388134509	-7.87003860781654E-4	100.181378628199
685	0.307977772817233		0.446430796555994		1.04172337055206	0.307826782827602	0.465054382328541	0.661915669488597	-9.43514470705969E-4	100.217488399189
684	0.309473729232154		0.44871701175682		1.04161334037781	0.309322739242523	0.467386614040471	0.661813432285715	-8.82237258066121E-4	100.203349110332
683	0.306847932733857		0.444978513846954		1.04137301445007	0.306696942744226	0.463385605565236	0.66186117794945	-8.10053653874155E-4	100.186695806807
682	0.304132133794514		0.440985236885371		1.04107856750488	0.303981143804883	0.459097268793634	0.662127972583351	-0.00100046837501815	100.230631903796
681	0.300176002828876		0.435628397917518		1.04074490070343	0.300025012839245	0.453375024785153	0.661759021643114	-8.71225865991099E-4	100.200808519967
680	0.299682051414834		0.435077058198041		1.04034495353699	0.299531061425203	0.452627214103249	0.661761052124624	-8.55274117060577E-4	100.197128185878
679	0.300055473654553		0.436030891202042		1.0397824048996	0.299904483664922	0.453374242498185	0.661494314305081	-7.73507916992004E-4	100.17826548423
678	0.301955818495593		0.438838352738676		1.03909134864807	0.301804828505961	0.455990131617286	0.661867017682012	-8.8494930602111E-4	100.203974854264
677	0.30649975768642		0.445622440846334		1.03830218315125	0.306348767696789	0.462687751305088	0.662106932445654	-9.43152505584694E-4	100.217404872408
676	0.309007518296517		0.44944091922463		1.03743207454681	0.308856528306886	0.466261425846202	0.662410637436611	-7.60837859341068E-4	100.175342937577
675	0.312604161348552		0.454711460585406		1.03645670413971	0.312453171358921	0.471285745221612	0.66298031401734	-8.59458004188141E-4	100.198093465226
674	0.316196635699431		0.460141083976797		1.03543519973755	0.3160456457098	0.476443281596997	0.663343692559673	-8.5249853592739E-4	100.196487826902
673	0.319294926702676		0.464720124485843		1.03439784049988	0.319143936713045	0.480702502606182	0.663911535685316	-8.92320900621236E-4	100.205675703295
672	0.321457087948919		0.468152933920369		1.03343141078949	0.321306097959288	0.483800959161849	0.664128691509682	-7.10632407804437E-4	100.163763104437
671	0.324498533859618		0.472580906314785		1.03253030776978	0.324347543869987	0.487951123443832	0.664713181887617	-9.27102408665857E-4	100.213701234885
670	0.327197502354693		0.476803336717835		1.03166258335114	0.327046512365062	0.491897179417991	0.664867630979345	-8.63888686767774E-4	100.199115693761
669	0.329909709375105		0.480661289583279		1.03090846538544	0.329758719385474	0.495514811903979	0.665487108485013	-9.26777141638871E-4	100.21362617936
668	0.331372792255001		0.483070441795332		1.03032398223877	0.33122180226537	0.497716082471732	0.665483423040046	-8.66428306949097E-4	100.199701628998
667	0.333151509288909		0.485803831066636		1.02984714508057	0.333000519299278	0.500300711051109	0.665600731607316	-7.87126433688859E-4	100.18140690285
666	0.334613234136584		0.488017957644703		1.02945625782013	0.334462244146953	0.502390164113984	0.665742022909249	-9.52812550641871E-4	100.219634040527
665	0.335496898073483		0.489355387448929		1.02919232845306	0.335345908083852	0.503637835100719	0.665847330585853	-8.93321510410883E-4	100.205906576354
664	0.336237651244351		0.490803086417754		1.02901315689087	0.33608666125472	0.505039858335631	0.665465617629271	-8.20447123482991E-4	100.189093488291
663	0.33934070909328		0.495420103000868		1.02890539169312	0.339189719103649	0.509737440411433	0.665420454165331	-8.95109479506512E-4	100.206319120009
662	0.338966911487352		0.494899613500994		1.02881276607513	0.338815921497721	0.509156065843949	0.665446106266294	-9.77605292703911E-4	100.225355482001
661	0.341329515237677		0.498596702109268		1.02865874767303	0.341178525248046	0.512882885179392	0.665217216458123	-9.05238326221805E-4	100.208656212293
660	0.344266621549183		0.503055408756491		1.02847301959991	0.344115631559552	0.517375941800592	0.66511718801989	-9.43542065119137E-4	100.217494766857
659	0.347378434891241		0.507790561935813		1.0282074213028	0.34722744490161	0.522111051548538	0.665045192726265	-8.47913694582668E-4	100.195430059433
658	0.35177628338441		0.514289872212577		1.02787590026855	0.351625293394779	0.528623193656598	0.665171898649609	-8.49023282433308E-4	100.195686051112
657	0.35656179972271		0.521466950430969		1.02744805812836	0.356410809733079	0.535777235092466	0.665222010919461	-8.4081850317876E-4	100.193793151812
656	0.360418269433863		0.527135685149529		1.02696716785431	0.360267279444232	0.541348072537329	0.665500253387139	-9.17651865372273E-4	100.211520540317
655	0.365038023443724		0.534078522646201		1.02642416954041	0.364887033454093	0.548188136530759	0.665623732325369	-9.57901648787529E-4	100.22080842925
654	0.372416380347835		0.545062677875748		1.02584540843964	0.372265390358204	0.559147079538199	0.665773647008331	-8.95223390477377E-4	100.206345403099
653	0.380877644352112		0.557636960662418		1.02524280548096	0.38072665436248	0.571710317859177	0.665943297626929	-8.44977393128932E-4	100.194752632008
652	0.389425404327722		0.570300040445803		1.02464997768402	0.389274414338091	0.584354961299708	0.666160878436415	-8.26810879572161E-4	100.190561578842
651	0.397571552976812		0.582159021721659		1.02402031421661	0.397420562987181	0.596139703751621	0.666656759290042	-9.84104085386051E-4	100.226855267762
650	0.405116749479866		0.59323755256118		1.02342689037323	0.404965759490235	0.607132304790162	0.667014020329885	-0.00100850891094875	100.232487592714
649	0.410424299507486		0.601032688028079		1.02281045913696	0.410273309517855	0.614739562500366	0.667393697339288	-8.774870085508E-4	100.202253106751
648	0.412764121885832		0.604604959742321		1.02215600013733	0.412613131896201	0.617997632107583	0.667661347647966	-8.73553777796792E-4	100.201345619285
647	0.414623945486799		0.607298239760856		1.02147591114044	0.414472955497168	0.620337569554128	0.66814098619736	-8.88513585198544E-4	100.204797237282
646	0.413308424251821		0.605623688375946		1.0207325220108	0.41315743426219	0.618176843735133	0.668348286496499	-8.32605107597019E-4	100.191898300483
645	0.414655091726909		0.607692023328618		1.01995670795441	0.414504101737278	0.619816606717074	0.668752816954589	-7.8625201043212E-4	100.181205194406
644	0.415786466844459		0.609502115484472		1.01916015148163	0.415635476854828	0.621177321801155	0.669109225767705	-0.00103247676265809	100.238019377692
643	0.417403443766708		0.612115399775787		1.01832723617554	0.417252453777077	0.623330839137872	0.669391641771132	-9.02745679835545E-4	100.208081063313
642	0.4188195570423		0.61445511534261		1.01750922203064	0.418668567052669	0.625210804613718	0.669643844864998	-9.54324443995924E-4	100.219982932048
641	0.42391108229051		0.622066888993835		1.01670157909393	0.423760092300879	0.632453448905811	0.670025743450389	-8.27893696847893E-4	100.190811382168
640	0.428283759885342		0.62873995110096		1.01591956615448	0.428132769895711	0.638746281171121	0.670270469693762	-8.88175980269121E-4	100.204719341702
639	0.434431028537537		0.637789099624372		1.01518023014069	0.434280038547906	0.647467949900067	0.670735962474953	-0.00102931737085355	100.237290171961
638	0.440834061959217		0.647395480811573		1.01450133323669	0.440683071969586	0.65678064533972	0.670974510434367	-9.24529262188243E-4	100.213107481616
637	0.447771610759621		0.65773151897828		1.01387441158295	0.44762062076999	0.666854225521154	0.671242085060149	-8.91993288208237E-4	100.205600112625
636	0.45451005372586		0.667904928971809		1.01331305503845	0.454359063736229	0.676793854412122	0.671340410043905	-8.04695981521335E-4	100.185459861609
635	0.462641389142587		0.679785058929221		1.01278173923492	0.462490399152956	0.688470966184823	0.67176456505618	-9.81570098685968E-4	100.226270473831
634	0.470303184155917		0.691307800582397		1.01230943202972	0.470152194166286	0.699814480227366	0.671824044014546	-8.81557726750507E-4	100.203192324411
633	0.477248789596914		0.701537289677264		1.01188361644745	0.477097799607283	0.70987116424455	0.672090688618144	-9.61470949106434E-4	100.221632109146
632	0.48409024769946		0.711905441491304		1.01149141788483	0.483939257709829	0.720083320041046	0.672060085605432	-9.32080724000628E-4	100.214849990593
631	0.489113236570991		0.719331314264366		1.01114201545715	0.48896224658136	0.727343191523972	0.672257955088378	-8.78122300296406E-4	100.202399684047
630	0.496629734343691		0.73052887586513		1.01084458827972	0.496478744354059	0.738448238247502	0.672327075398421	-8.73372586807744E-4	100.201303814524
629	0.503925394714929		0.741325094694061		1.01066052913666	0.503774404725298	0.74922509049509	0.672393932232572	-9.82027226252472E-4	100.226375969566
628	0.509369437661926		0.749578671321238		1.01059973239899	0.509218447672295	0.757521082854311	0.672216865243643	-8.82355450646152E-4	100.203376380524
627	0.51718362830453		0.761169479380392		1.01062381267548	0.517032638314899	0.769253079479079	0.672122936010893	-9.91786558360921E-4	100.228628251186
626	0.524542612650125		0.77232850948717		1.01070892810822	0.524391622660494	0.780596397860571	0.671783298126569	-8.24030535839714E-4	100.189920163121
625	0.534199329530484		0.786491482453038		1.01086187362671	0.534048339540853	0.795031330991116	0.671732444651065	-0.00101517667215654	100.234026482686
624	0.541051560338065		0.79672869249514		1.01101994514465	0.540900570348434	0.80550567597179	0.671504356187028	-9.99379255759232E-4	100.230380546757
623	0.546802689465475		0.805366747880546		1.01118159294128	0.546651699475844	0.814369107546626	0.671257903093464	-8.60948586551123E-4	100.198437364984
622	0.555883362646964		0.818684914941587		1.01123750209808	0.555732372657333	0.827881964752105	0.671270055778709	-0.001023019783787	100.235836668609
621	0.562440921824863		0.828693746688703		1.01116001605988	0.562289931835232	0.837939058795683	0.671039171563831	-8.44044593399063E-4	100.194537428864
620	0.567103620170489		0.835445238971296		1.0109326839447	0.566952630180858	0.844575974964542	0.67128671308068	-9.07466736775238E-4	100.209170394741
619	0.572450516511429		0.843392925707117		1.01029443740845	0.572299526521798	0.852072260479269	0.671656094284649	-8.88984006597298E-4	100.204905777704
618	0.575923471819817		0.848722347682892		1.00925385951996	0.575772481830186	0.856573387155998	0.672181146955629	-0.0010877591330229	100.250779724062
617	0.57743733594951		0.851271340592628		1.00784981250763	0.577286345959879	0.857950747164908	0.672866534433961	-8.16470808000421E-4	100.188176180712
616	0.581605509150628		0.857599212271445		1.00611257553101	0.581454519160997	0.862838443409906	0.673885735622894	-9.07657800979169E-4	100.209214480932
615	0.584595801497078		0.862008297336835		1.00407087802887	0.584444811507447	0.86551452505614	0.675257080716858	-9.82508502166238E-4	100.226487038367
614	0.585451071879403		0.863537392789709		1.00178229808807	0.585300081889772	0.865073577531459	0.676589942279779	-9.06228026301551E-4	100.208884574918
613	0.590910440754073		0.871754769465859		0.999289870262146	0.590759450764442	0.871132821383527	0.678150835628259	-8.81835567326051E-4	100.203256429581
612	0.593533463204529		0.875907223062547		0.996878206729889	0.593382473214898	0.873169939664411	0.679572722628261	-8.81400873801631E-4	100.203156134305
611	0.595343997865263		0.878618004912067		0.994600772857666	0.595193007875632	0.873871271192666	0.681099181877565	-9.51299754807133E-4	100.219284941961
610	0.599607834518148		0.885084594241697		0.992450952529907	0.599456844528517	0.878400179300634	0.682441623595516	-9.30889194508907E-4	100.214575041704
609	0.603925992459878		0.891893331397108		0.99060595035553	0.603775002470247	0.883511977174484	0.68338066496976	-8.41708626713693E-4	100.193998507736
608	0.606777896745357		0.896073250813999		0.989089071750641	0.606626906755726	0.886293400263813	0.684453823728303	-8.4816401535541E-4	100.19548781058
607	0.613454706411061		0.906073775676383		0.987849950790405	0.61330371642143	0.895062078692491	0.685208021903179	-9.03931537801428E-4	100.208354685748
606	0.620661395835389		0.916832708128509		0.98688405752182	0.620510405845758	0.904804729837223	0.68579482996004	-9.55358779910714E-4	100.2202216209
605	0.624307367500508		0.922431450781919		0.986172497272491	0.624156377510877	0.909673676208161	0.686132174465661	-8.284439971345E-4	100.190938335352
604	0.631936905433889		0.933469857109882		0.985681891441345	0.631785915444258	0.920101484605834	0.686648077429102	-9.68435159237272E-4	100.223239244698
603	0.63865205128108		0.943682512708723		0.985398948192596	0.638501061291449	0.929900906515236	0.686633443217304	-7.99233809920773E-4	100.184199825493
602	0.645729861921744		0.954266884614672		0.985136866569519	0.645578871932113	0.940080640402386	0.686727121256091	-7.80519663054337E-4	100.179882889604
601	0.655036325507604		0.967835478920806		0.984874844551086	0.654885335517973	0.953193969432732	0.687043095654194	-9.21622942392796E-4	100.21243685287
600	0.662537741493255		0.979102400872856		0.984640955924988	0.662386751503624	0.964061477199683	0.687079369074744	-7.7993296188556E-4	100.17974755375
599	0.67383114049598		0.995595751026679		0.984402716159821	0.673680150506349	0.980064315452409	0.687383613385996	-7.92779933342646E-4	100.182711039235
598	0.682072940389805		1.0077494771744		0.984189689159393	0.681921950400174	0.99181379925128	0.687550375801342	-8.70832387536809E-4	100.200717736309
597	0.690636111742307		1.02027414753451		0.983989238739014	0.690485121752676	1.00393593687758	0.687778070680695	-8.72225205751396E-4	100.201039088789
596	0.699037335463621		1.03283607375385		0.983830749988556	0.69888634547399	1.0161330446547	0.68779019553634	-8.77368463845622E-4	100.202225755621
595	0.710177237152506		1.04920597420113		0.983692348003387	0.710026247162875	1.03209304429945	0.687947904585308	-7.64378213287917E-4	100.176159566918
594	0.716438293646043		1.05841385075126		0.98360812664032	0.716287303656412	1.04106162118946	0.688035452539326	-8.60022351591719E-4	100.198223668517
593	0.728357397602323		1.07618288449373		0.983520925045013	0.728206407612692	1.05844554256885	0.687996102137986	-7.14774027834071E-4	100.164718313962
592	0.739388552953752		1.09217797720326		0.983504712581635	0.739237562964121	1.07415934409811	0.68820102624979	-9.28594227894957E-4	100.21404547362
591	0.745221820142358		1.10082328966871		0.983534276485443	0.745070830152727	1.082694594198	0.688163434218155	-7.38686566847855E-4	100.170233600883
590	0.755935037262636		1.11661570293568		0.983577489852905	0.755784047273005	1.09827522655424	0.688155417694545	-8.38897161194815E-4	100.1933498901
589	0.766222384633639		1.13163843847136		0.983680605888367	0.766071394644008	1.11316794083437	0.688190313915977	-8.2245003837351E-4	100.189555549631
588	0.771995706143773		1.14022673799759		0.983871042728424	0.771844716154142	1.12183322514224	0.68802090975357	-8.29260107857982E-4	100.191126610772
587	0.780485470514146		1.15264401394895		0.984093189239502	0.780334480524515	1.1343062785843	0.687939840638483	-8.64337935924156E-4	100.199219343227
586	0.787017666532967		1.16231832116127		0.984412670135498	0.786866676543336	1.14419803599757	0.68770147455926	-8.35636731923213E-4	100.192597699782
585	0.7936319487331		1.17207392109787		0.984760284423828	0.793480958743469	1.15420900081688	0.68746731153707	-8.21776239966478E-4	100.189400107843
584	0.80080303635093		1.18245555862963		0.985130906105042	0.800652046361299	1.16487066774102	0.687331279371957	-8.3159065639538E-4	100.191664266487
583	0.805559170365129		1.18959771863527		0.985546290874481	0.805408180375498	1.17240076987206	0.686973431843948	-8.13477130293282E-4	100.187485566191
582	0.811556524467141		1.19829857614445		0.985946357250214	0.81140553447751	1.18145526552941	0.686784813738942	-8.76612783333362E-4	100.202051402028
581	0.818063433620828		1.20796862005113		0.986308813095093	0.817912443631197	1.1914272443325	0.686498019515605	-8.39964750035887E-4	100.193596187113
580	0.823516296147868		1.21606974611739		0.98666900396347	0.823365306158237	1.19985547254415	0.686220403206056	-8.30471441968192E-4	100.191406064239
579	0.82841430943396		1.22324477050278		0.986901700496674	0.828263319444329	1.20721949085249	0.686091738677482	-7.22647327444918E-4	100.166534210822
578	0.836881509107158		1.23579236261573		0.987047076225281	0.836730519117527	1.21978238464072	0.68596704596942	-7.93477841600166E-4	100.182872032294
577	0.841338226008295		1.2420826763113		0.987110257148743	0.841187236018664	1.22606969613031	0.686084354481316	-8.01619066996575E-4	100.184750064415
576	0.852979784799669		1.25927862655997		0.987100422382355	0.852828794810038	1.24303161031951	0.686087777438599	-7.29002480479776E-4	100.167999986553
575	0.856682741938193		1.26491846723567		0.987024247646332	0.856531751948562	1.24850234482257	0.686047371477132	-7.09265619940774E-4	100.163447875011
574	0.865138485312609		1.27719314064854		0.986867606639862	0.864987495322977	1.26041768474688	0.686270516346085	-7.30999315317771E-4	100.168460548269
573	0.871092260313232		1.28591148167816		0.986653208732605	0.870941270323601	1.26874583698191	0.68645842605907	-7.52150513059287E-4	100.173339114767
572	0.881578234392426		1.30117829985446		0.986465394496918	0.881427244402795	1.28356451285782	0.686702721657772	-6.82689837700106E-4	100.157318760674
571	0.886851821407487		1.30912614528169		0.986282229423523	0.886700831417856	1.29116500167566	0.686744784955529	-6.36543483956063E-4	100.146677019388
